Angle,Time
0.0,0.0
0.8,0.006
1.6,0.012
2.4,0.018
3.2,0.023
4.0,0.029
4.8,0.036
5.6,0.044
6.4,0.05
7.2,0.054
8.0,0.059
8.8,0.063
9.6,0.066
10.4,0.07
11.2,0.073
12.0,0.077
12.8,0.08
13.6,0.084
14.4,0.087
15.2,0.091
16.0,0.094
16.8,0.098
17.6,0.101
18.4,0.104
19.2,0.108
20.0,0.111
20.8,0.114
21.6,0.117
22.4,0.121
23.2,0.124
24.0,0.127
24.8,0.13
25.6,0.133
26.4,0.136
27.2,0.139
28.0,0.142
28.8,0.145
29.6,0.148
30.4,0.151
31.2,0.154
32.0,0.157
32.8,0.16
33.6,0.163
34.4,0.166
35.2,0.169
36.0,0.172
36.8,0.175
37.6,0.178
38.4,0.181
39.2,0.184
40.0,0.188
40.8,0.191
41.6,0.194
42.4,0.197
43.2,0.2
44.0,0.203
44.8,0.206
45.6,0.209
46.4,0.212
47.2,0.215
48.0,0.218
48.8,0.221
49.6,0.224
50.4,0.228
51.2,0.231
52.0,0.234
52.8,0.237
53.6,0.24
54.4,0.243
55.2,0.246
56.0,0.249
56.8,0.252
57.6,0.255
58.4,0.258
59.2,0.261
60.0,0.264
60.8,0.267
61.6,0.27
62.4,0.273
63.2,0.276
64.0,0.279
64.8,0.282
65.6,0.285
66.4,0.288
67.2,0.291
68.0,0.295
68.8,0.298
69.6,0.301
70.4,0.304
71.2,0.307
72.0,0.31
72.8,0.313
73.6,0.316
74.4,0.319
75.2,0.322
76.0,0.325
76.8,0.328
77.6,0.331
78.4,0.334
79.2,0.337
80.0,0.34
80.8,0.343
81.6,0.346
82.4,0.35
83.2,0.353
84.0,0.356
84.8,0.359
85.6,0.362
86.4,0.365
87.2,0.368
88.0,0.371
88.8,0.374
89.6,0.377
90.4,0.38
91.2,0.383
92.0,0.386
92.8,0.389
93.6,0.392
94.4,0.395
95.2,0.398
96.0,0.401
96.8,0.405
97.6,0.408
98.4,0.411
99.2,0.414
100.0,0.417
100.8,0.42
101.6,0.423
102.4,0.426
103.2,0.429
104.0,0.432
104.8,0.435
105.6,0.438
106.4,0.441
107.2,0.444
108.0,0.447
108.8,0.45
109.6,0.453
110.4,0.456
111.2,0.46
112.0,0.463
112.8,0.466
113.6,0.469
114.4,0.472
115.2,0.475
116.0,0.478
116.8,0.481
117.6,0.484
118.4,0.487
119.2,0.49
120.0,0.494
120.8,0.497
121.6,0.5
122.4,0.503
123.2,0.506
124.0,0.509
124.8,0.512
125.6,0.515
126.4,0.518
127.2,0.521
128.0,0.524
128.8,0.528
129.6,0.531
130.4,0.534
131.2,0.537
132.0,0.54
132.8,0.543
133.6,0.546
134.4,0.549
135.2,0.552
136.0,0.556
136.8,0.559
137.6,0.562
138.4,0.565
139.2,0.568
140.0,0.571
140.8,0.574
141.6,0.577
142.4,0.581
143.2,0.584
144.0,0.587
144.8,0.59
145.6,0.593
146.4,0.596
147.2,0.599
148.0,0.602
148.8,0.606
149.6,0.609
150.4,0.612
151.2,0.615
152.0,0.618
152.8,0.621
153.6,0.624
154.4,0.627
155.2,0.63
156.0,0.634
156.8,0.637
157.6,0.64
158.4,0.643
159.2,0.646
160.0,0.649
160.8,0.652
161.6,0.655
162.4,0.658
163.2,0.661
164.0,0.664
164.8,0.668
165.6,0.671
166.4,0.674
167.2,0.677
168.0,0.68
168.8,0.683
169.6,0.686
170.4,0.689
171.2,0.693
172.0,0.696
172.8,0.699
173.6,0.702
174.4,0.705
175.2,0.708
176.0,0.711
176.8,0.714
177.6,0.717
178.4,0.72
179.2,0.723
180.0,0.727
180.8,0.73
181.6,0.733
182.4,0.736
183.2,0.739
184.0,0.742
184.8,0.745
185.6,0.748
186.4,0.751
187.2,0.755
188.0,0.758
188.8,0.761
189.6,0.764
190.4,0.767
191.2,0.77
192.0,0.773
192.8,0.776
193.6,0.779
194.4,0.783
195.2,0.786
196.0,0.789
196.8,0.792
197.6,0.795
198.4,0.798
199.2,0.801
200.0,0.805
200.8,0.808
201.6,0.811
202.4,0.814
203.2,0.817
204.0,0.82
204.8,0.823
205.6,0.827
206.4,0.83
207.2,0.833
208.0,0.836
208.8,0.839
209.6,0.842
210.4,0.846
211.2,0.849
212.0,0.852
212.8,0.855
213.6,0.858
214.4,0.861
215.2,0.864
216.0,0.868
216.8,0.871
217.6,0.874
218.4,0.877
219.2,0.88
220.0,0.883
220.8,0.886
221.6,0.89
222.4,0.893
223.2,0.896
224.0,0.899
224.8,0.902
225.6,0.905
226.4,0.909
227.2,0.912
228.0,0.915
228.8,0.918
229.6,0.921
230.4,0.924
231.2,0.927
232.0,0.931
232.8,0.934
233.6,0.937
234.4,0.94
235.2,0.943
236.0,0.946
236.8,0.949
237.6,0.953
238.4,0.956
239.2,0.959
240.0,0.962
240.8,0.965
241.6,0.968
242.4,0.972
243.2,0.975
244.0,0.978
244.8,0.981
245.6,0.984
246.4,0.987
247.2,0.99
248.0,0.993
248.8,0.997
249.6,1.0
250.4,1.003
251.2,1.006
252.0,1.009
252.8,1.012
253.6,1.015
254.4,1.019
255.2,1.022
256.0,1.025
256.8,1.028
257.6,1.031
258.4,1.034
259.2,1.037
260.0,1.041
260.8,1.044
261.6,1.047
262.4,1.05
263.2,1.053
264.0,1.056
264.8,1.06
265.6,1.063
266.4,1.066
267.2,1.069
268.0,1.072
268.8,1.075
269.6,1.079
270.4,1.082
271.2,1.085
272.0,1.088
272.8,1.091
273.6,1.094
274.4,1.097
275.2,1.101
276.0,1.104
276.8,1.107
277.6,1.11
278.4,1.113
279.2,1.116
280.0,1.12
280.8,1.123
281.6,1.126
282.4,1.129
283.2,1.132
284.0,1.136
284.8,1.139
285.6,1.142
286.4,1.145
287.2,1.148
288.0,1.151
288.8,1.155
289.6,1.158
290.4,1.161
291.2,1.164
292.0,1.167
292.8,1.17
293.6,1.173
294.4,1.177
295.2,1.18
296.0,1.183
296.8,1.186
297.6,1.189
298.4,1.192
299.2,1.196
300.0,1.199
300.8,1.202
301.6,1.205
302.4,1.208
303.2,1.211
304.0,1.214
304.8,1.218
305.6,1.221
306.4,1.224
307.2,1.227
308.0,1.23
308.8,1.233
309.6,1.236
310.4,1.239
311.2,1.243
312.0,1.246
312.8,1.249
313.6,1.252
314.4,1.255
315.2,1.258
316.0,1.261
316.8,1.264
317.6,1.268
318.4,1.271
319.2,1.274
320.0,1.277
320.8,1.28
321.6,1.283
322.4,1.286
323.2,1.289
324.0,1.292
324.8,1.295
325.6,1.299
326.4,1.302
327.2,1.305
328.0,1.308
328.8,1.311
329.6,1.314
330.4,1.317
331.2,1.32
332.0,1.323
332.8,1.326
333.6,1.33
334.4,1.333
335.2,1.336
336.0,1.339
336.8,1.342
337.6,1.345
338.4,1.348
339.2,1.351
340.0,1.354
340.8,1.357
341.6,1.36
342.4,1.363
343.2,1.366
344.0,1.369
344.8,1.372
345.6,1.376
346.4,1.379
347.2,1.382
348.0,1.385
348.8,1.388
349.6,1.391
350.4,1.394
351.2,1.397
352.0,1.4
352.8,1.403
353.6,1.406
354.4,1.409
355.2,1.412
356.0,1.416
356.8,1.419
357.6,1.422
358.4,1.425
359.2,1.428
360.0,1.431
360.8,1.434
361.6,1.437
362.4,1.44
363.2,1.443
364.0,1.446
364.8,1.449
365.6,1.452
366.4,1.455
367.2,1.458
368.0,1.461
368.8,1.464
369.6,1.467
370.4,1.47
371.2,1.474
372.0,1.477
372.8,1.48
373.6,1.483
374.4,1.486
375.2,1.489
376.0,1.492
376.8,1.495
377.6,1.498
378.4,1.501
379.2,1.504
380.0,1.507
380.8,1.51
381.6,1.513
382.4,1.516
383.2,1.519
384.0,1.522
384.8,1.525
385.6,1.528
386.4,1.531
387.2,1.534
388.0,1.537
388.8,1.54
389.6,1.543
390.4,1.546
391.2,1.549
392.0,1.552
392.8,1.555
393.6,1.558
394.4,1.561
395.2,1.564
396.0,1.567
396.8,1.57
397.6,1.573
398.4,1.576
399.2,1.579
400.0,1.582
400.8,1.585
401.6,1.588
402.4,1.591
403.2,1.594
404.0,1.598
404.8,1.601
405.6,1.604
406.4,1.607
407.2,1.61
408.0,1.613
408.8,1.616
409.6,1.619
410.4,1.622
411.2,1.625
412.0,1.628
412.8,1.631
413.6,1.634
414.4,1.637
415.2,1.64
416.0,1.643
416.8,1.646
417.6,1.649
418.4,1.652
419.2,1.655
420.0,1.658
420.8,1.661
421.6,1.664
422.4,1.667
423.2,1.67
424.0,1.673
424.8,1.676
425.6,1.679
426.4,1.682
427.2,1.685
428.0,1.688
428.8,1.692
429.6,1.695
430.4,1.698
431.2,1.701
432.0,1.704
432.8,1.707
433.6,1.71
434.4,1.713
435.2,1.716
436.0,1.719
436.8,1.722
437.6,1.725
438.4,1.728
439.2,1.731
440.0,1.734
440.8,1.737
441.6,1.74
442.4,1.743
443.2,1.746
444.0,1.749
444.8,1.752
445.6,1.755
446.4,1.758
447.2,1.761
448.0,1.764
448.8,1.768
449.6,1.771
450.4,1.774
451.2,1.777
452.0,1.78
452.8,1.783
453.6,1.786
454.4,1.789
455.2,1.792
456.0,1.795
456.8,1.798
457.6,1.801
458.4,1.804
459.2,1.807
460.0,1.81
460.8,1.813
461.6,1.816
462.4,1.819
463.2,1.822
464.0,1.825
464.8,1.828
465.6,1.831
466.4,1.835
467.2,1.838
468.0,1.841
468.8,1.844
469.6,1.847
470.4,1.85
471.2,1.853
472.0,1.856
472.8,1.859
473.6,1.862
474.4,1.865
475.2,1.868
476.0,1.871
476.8,1.874
477.6,1.877
478.4,1.881
479.2,1.884
480.0,1.887
480.8,1.89
481.6,1.893
482.4,1.896
483.2,1.899
484.0,1.902
484.8,1.905
485.6,1.908
486.4,1.911
487.2,1.914
488.0,1.918
488.8,1.921
489.6,1.924
490.4,1.927
491.2,1.93
492.0,1.933
492.8,1.936
493.6,1.939
494.4,1.942
495.2,1.946
496.0,1.949
496.8,1.952
497.6,1.955
498.4,1.958
499.2,1.961
500.0,1.964
500.8,1.967
501.6,1.97
502.4,1.973
503.2,1.977
504.0,1.98
504.8,1.983
505.6,1.986
506.4,1.989
507.2,1.992
508.0,1.995
508.8,1.998
509.6,2.002
510.4,2.005
511.2,2.008
512.0,2.011
512.8,2.014
513.6,2.017
514.4,2.02
515.2,2.023
516.0,2.026
516.8,2.029
517.6,2.032
518.4,2.036
519.2,2.039
520.0,2.042
520.8,2.045
521.6,2.048
522.4,2.051
523.2,2.054
524.0,2.057
524.8,2.06
525.6,2.063
526.4,2.066
527.2,2.07
528.0,2.073
528.8,2.076
529.6,2.079
530.4,2.082
531.2,2.085
532.0,2.088
532.8,2.091
533.6,2.094
534.4,2.097
535.2,2.101
536.0,2.104
536.8,2.107
537.6,2.11
538.4,2.113
539.2,2.116
540.0,2.119
540.8,2.122
541.6,2.125
542.4,2.128
543.2,2.131
544.0,2.134
544.8,2.138
545.6,2.141
546.4,2.144
547.2,2.147
548.0,2.15
548.8,2.153
549.6,2.156
550.4,2.159
551.2,2.162
552.0,2.166
552.8,2.169
553.6,2.172
554.4,2.175
555.2,2.178
556.0,2.181
556.8,2.184
557.6,2.187
558.4,2.19
559.2,2.194
560.0,2.197
560.8,2.2
561.6,2.203
562.4,2.206
563.2,2.209
564.0,2.212
564.8,2.215
565.6,2.219
566.4,2.222
567.2,2.225
568.0,2.228
568.8,2.231
569.6,2.234
570.4,2.237
571.2,2.241
572.0,2.244
572.8,2.247
573.6,2.25
574.4,2.253
575.2,2.256
576.0,2.259
576.8,2.263
577.6,2.266
578.4,2.269
579.2,2.272
580.0,2.275
580.8,2.278
581.6,2.281
582.4,2.285
583.2,2.288
584.0,2.291
584.8,2.294
585.6,2.297
586.4,2.3
587.2,2.304
588.0,2.307
588.8,2.31
589.6,2.313
590.4,2.316
591.2,2.319
592.0,2.322
592.8,2.326
593.6,2.329
594.4,2.332
595.2,2.335
596.0,2.338
596.8,2.341
597.6,2.344
598.4,2.348
599.2,2.351
600.0,2.354
600.8,2.357
601.6,2.36
602.4,2.363
603.2,2.366
604.0,2.369
604.8,2.373
605.6,2.376
606.4,2.379
607.2,2.382
608.0,2.385
608.8,2.388
609.6,2.391
610.4,2.394
611.2,2.398
612.0,2.401
612.8,2.404
613.6,2.407
614.4,2.41
615.2,2.413
616.0,2.416
616.8,2.419
617.6,2.423
618.4,2.426
619.2,2.429
620.0,2.432
620.8,2.435
621.6,2.438
622.4,2.442
623.2,2.445
624.0,2.448
624.8,2.451
625.6,2.454
626.4,2.457
627.2,2.46
628.0,2.464
628.8,2.467
629.6,2.47
630.4,2.473
631.2,2.476
632.0,2.479
632.8,2.482
633.6,2.486
634.4,2.489
635.2,2.492
636.0,2.495
636.8,2.498
637.6,2.501
638.4,2.505
639.2,2.508
640.0,2.511
640.8,2.514
641.6,2.517
642.4,2.52
643.2,2.524
644.0,2.527
644.8,2.53
645.6,2.533
646.4,2.536
647.2,2.539
648.0,2.543
648.8,2.546
649.6,2.549
650.4,2.552
651.2,2.555
652.0,2.558
652.8,2.561
653.6,2.565
654.4,2.568
655.2,2.571
656.0,2.574
656.8,2.577
657.6,2.58
658.4,2.584
659.2,2.587
660.0,2.59
660.8,2.593
661.6,2.596
662.4,2.599
663.2,2.602
664.0,2.606
664.8,2.609
665.6,2.612
666.4,2.615
667.2,2.618
668.0,2.621
668.8,2.624
669.6,2.627
670.4,2.631
671.2,2.634
672.0,2.637
672.8,2.64
673.6,2.643
674.4,2.646
675.2,2.649
676.0,2.652
676.8,2.655
677.6,2.659
678.4,2.662
679.2,2.665
680.0,2.668
680.8,2.671
681.6,2.674
682.4,2.677
683.2,2.68
684.0,2.683
684.8,2.687
685.6,2.69
686.4,2.693
687.2,2.696
688.0,2.699
688.8,2.702
689.6,2.705
690.4,2.708
691.2,2.711
692.0,2.714
692.8,2.717
693.6,2.721
694.4,2.724
695.2,2.727
696.0,2.73
696.8,2.733
697.6,2.736
698.4,2.739
699.2,2.742
700.0,2.745
700.8,2.748
701.6,2.751
702.4,2.754
703.2,2.757
704.0,2.76
704.8,2.763
705.6,2.766
706.4,2.77
707.2,2.773
708.0,2.776
708.8,2.779
709.6,2.782
710.4,2.785
711.2,2.788
712.0,2.791
712.8,2.794
713.6,2.797
714.4,2.8
715.2,2.803
716.0,2.806
716.8,2.809
717.6,2.812
718.4,2.815
719.2,2.818
720.0,2.822
720.8,2.825
721.6,2.828
722.4,2.831
723.2,2.834
724.0,2.837
724.8,2.84
725.6,2.843
726.4,2.846
727.2,2.849
728.0,2.852
728.8,2.855
729.6,2.858
730.4,2.861
731.2,2.864
732.0,2.867
732.8,2.87
733.6,2.873
734.4,2.876
735.2,2.879
736.0,2.882
736.8,2.885
737.6,2.888
738.4,2.891
739.2,2.894
740.0,2.897
740.8,2.9
741.6,2.903
742.4,2.906
743.2,2.909
744.0,2.912
744.8,2.916
745.6,2.919
746.4,2.922
747.2,2.925
748.0,2.928
748.8,2.931
749.6,2.934
750.4,2.937
751.2,2.94
752.0,2.943
752.8,2.946
753.6,2.949
754.4,2.952
755.2,2.955
756.0,2.958
756.8,2.961
757.6,2.964
758.4,2.967
759.2,2.97
760.0,2.973
760.8,2.976
761.6,2.979
762.4,2.982
763.2,2.985
764.0,2.988
764.8,2.991
765.6,2.994
766.4,2.997
767.2,3.0
768.0,3.003
768.8,3.006
769.6,3.009
770.4,3.012
771.2,3.015
772.0,3.018
772.8,3.021
773.6,3.024
774.4,3.027
775.2,3.03
776.0,3.033
776.8,3.036
777.6,3.039
778.4,3.042
779.2,3.045
780.0,3.048
780.8,3.051
781.6,3.054
782.4,3.057
783.2,3.06
784.0,3.063
784.8,3.066
785.6,3.069
786.4,3.072
787.2,3.076
788.0,3.079
788.8,3.082
789.6,3.085
790.4,3.088
791.2,3.091
792.0,3.094
792.8,3.097
793.6,3.1
794.4,3.103
795.2,3.106
796.0,3.109
796.8,3.112
797.6,3.115
798.4,3.118
799.2,3.121
800.0,3.124
800.8,3.127
801.6,3.13
802.4,3.133
803.2,3.136
804.0,3.139
804.8,3.142
805.6,3.145
806.4,3.148
807.2,3.151
808.0,3.154
808.8,3.157
809.6,3.16
810.4,3.163
811.2,3.166
812.0,3.17
812.8,3.173
813.6,3.176
814.4,3.179
815.2,3.182
816.0,3.185
816.8,3.188
817.6,3.191
818.4,3.194
819.2,3.197
820.0,3.2
820.8,3.203
821.6,3.206
822.4,3.209
823.2,3.212
824.0,3.215
824.8,3.218
825.6,3.221
826.4,3.224
827.2,3.227
828.0,3.23
828.8,3.233
829.6,3.236
830.4,3.239
831.2,3.242
832.0,3.246
832.8,3.249
833.6,3.252
834.4,3.255
835.2,3.258
836.0,3.261
836.8,3.264
837.6,3.267
838.4,3.27
839.2,3.273
840.0,3.276
840.8,3.279
841.6,3.282
842.4,3.286
843.2,3.289
844.0,3.292
844.8,3.295
845.6,3.298
846.4,3.301
847.2,3.304
848.0,3.307
848.8,3.31
849.6,3.313
850.4,3.316
851.2,3.32
852.0,3.323
852.8,3.326
853.6,3.329
854.4,3.332
855.2,3.335
856.0,3.338
856.8,3.341
857.6,3.344
858.4,3.347
859.2,3.351
860.0,3.354
860.8,3.357
861.6,3.36
862.4,3.363
863.2,3.366
864.0,3.369
864.8,3.372
865.6,3.375
866.4,3.379
867.2,3.382
868.0,3.385
868.8,3.388
869.6,3.391
870.4,3.394
871.2,3.397
872.0,3.4
872.8,3.403
873.6,3.406
874.4,3.41
875.2,3.413
876.0,3.416
876.8,3.419
877.6,3.422
878.4,3.425
879.2,3.428
880.0,3.431
880.8,3.434
881.6,3.437
882.4,3.44
883.2,3.443
884.0,3.446
884.8,3.449
885.6,3.453
886.4,3.456
887.2,3.459
888.0,3.462
888.8,3.465
889.6,3.468
890.4,3.471
891.2,3.474
892.0,3.477
892.8,3.48
893.6,3.484
894.4,3.487
895.2,3.49
896.0,3.493
896.8,3.496
897.6,3.499
898.4,3.502
899.2,3.505
900.0,3.508
900.8,3.511
901.6,3.514
902.4,3.517
903.2,3.521
904.0,3.524
904.8,3.527
905.6,3.53
906.4,3.533
907.2,3.536
908.0,3.539
908.8,3.542
909.6,3.545
910.4,3.548
911.2,3.551
912.0,3.555
912.8,3.558
913.6,3.561
914.4,3.564
915.2,3.567
916.0,3.57
916.8,3.573
917.6,3.576
918.4,3.579
919.2,3.583
920.0,3.586
920.8,3.589
921.6,3.592
922.4,3.595
923.2,3.598
924.0,3.601
924.8,3.605
925.6,3.608
926.4,3.611
927.2,3.614
928.0,3.617
928.8,3.62
929.6,3.623
930.4,3.626
931.2,3.63
932.0,3.633
932.8,3.636
933.6,3.639
934.4,3.642
935.2,3.645
936.0,3.648
936.8,3.652
937.6,3.655
938.4,3.658
939.2,3.661
940.0,3.664
940.8,3.667
941.6,3.67
942.4,3.673
943.2,3.677
944.0,3.68
944.8,3.683
945.6,3.686
946.4,3.689
947.2,3.692
948.0,3.695
948.8,3.699
949.6,3.702
950.4,3.705
951.2,3.708
952.0,3.711
952.8,3.714
953.6,3.717
954.4,3.721
955.2,3.724
956.0,3.727
956.8,3.73
957.6,3.733
958.4,3.736
959.2,3.739
960.0,3.743
960.8,3.746
961.6,3.749
962.4,3.752
963.2,3.755
964.0,3.758
964.8,3.761
965.6,3.765
966.4,3.768
967.2,3.771
968.0,3.774
968.8,3.777
969.6,3.78
970.4,3.783
971.2,3.786
972.0,3.789
972.8,3.793
973.6,3.796
974.4,3.799
975.2,3.802
976.0,3.805
976.8,3.808
977.6,3.811
978.4,3.815
979.2,3.818
980.0,3.821
980.8,3.824
981.6,3.827
982.4,3.83
983.2,3.833
984.0,3.837
984.8,3.84
985.6,3.843
986.4,3.846
987.2,3.849
988.0,3.852
988.8,3.855
989.6,3.859
990.4,3.862
991.2,3.865
992.0,3.868
992.8,3.871
993.6,3.874
994.4,3.877
995.2,3.881
996.0,3.884
996.8,3.887
997.6,3.89
998.4,3.893
999.2,3.896
1000.0,3.9
1000.8,3.903
1001.6,3.906
1002.4,3.909
1003.2,3.912
1004.0,3.915
1004.8,3.919
1005.6,3.922
1006.4,3.925
1007.2,3.928
1008.0,3.931
1008.8,3.934
1009.6,3.937
1010.4,3.941
1011.2,3.944
1012.0,3.947
1012.8,3.95
1013.6,3.953
1014.4,3.956
1015.2,3.96
1016.0,3.963
1016.8,3.966
1017.6,3.969
1018.4,3.972
1019.2,3.975
1020.0,3.978
1020.8,3.982
1021.6,3.985
1022.4,3.988
1023.2,3.991
1024.0,3.994
1024.8,3.997
1025.6,4.0
1026.4,4.003
1027.2,4.007
1028.0,4.01
1028.8,4.013
1029.6,4.016
1030.4,4.019
1031.2,4.022
1032.0,4.025
1032.8,4.028
1033.6,4.032
1034.4,4.035
1035.2,4.038
1036.0,4.041
1036.8,4.044
1037.6,4.047
1038.4,4.05
1039.2,4.053
1040.0,4.056
1040.8,4.059
1041.6,4.063
1042.4,4.066
1043.2,4.069
1044.0,4.072
1044.8,4.075
1045.6,4.078
1046.4,4.081
1047.2,4.084
1048.0,4.087
1048.8,4.09
1049.6,4.094
1050.4,4.097
1051.2,4.1
1052.0,4.103
1052.8,4.106
1053.6,4.109
1054.4,4.112
1055.2,4.115
1056.0,4.118
1056.8,4.121
1057.6,4.124
1058.4,4.127
1059.2,4.13
1060.0,4.134
1060.8,4.137
1061.6,4.14
1062.4,4.143
1063.2,4.146
1064.0,4.149
1064.8,4.152
1065.6,4.155
1066.4,4.158
1067.2,4.161
1068.0,4.164
1068.8,4.167
1069.6,4.17
1070.4,4.173
1071.2,4.176
1072.0,4.179
1072.8,4.183
1073.6,4.186
1074.4,4.189
1075.2,4.192
1076.0,4.195
1076.8,4.198
1077.6,4.201
1078.4,4.204
1079.2,4.207
1080.0,4.21
1080.8,4.213
1081.6,4.216
1082.4,4.219
1083.2,4.222
1084.0,4.225
1084.8,4.228
1085.6,4.231
1086.4,4.234
1087.2,4.237
1088.0,4.241
1088.8,4.244
1089.6,4.247
1090.4,4.25
1091.2,4.253
1092.0,4.256
1092.8,4.259
1093.6,4.262
1094.4,4.265
1095.2,4.268
1096.0,4.271
1096.8,4.274
1097.6,4.277
1098.4,4.28
1099.2,4.283
1100.0,4.286
1100.8,4.289
1101.6,4.292
1102.4,4.295
1103.2,4.298
1104.0,4.301
1104.8,4.304
1105.6,4.307
1106.4,4.31
1107.2,4.313
1108.0,4.316
1108.8,4.319
1109.6,4.322
1110.4,4.325
1111.2,4.328
1112.0,4.331
1112.8,4.334
1113.6,4.337
1114.4,4.34
1115.2,4.343
1116.0,4.346
1116.8,4.349
1117.6,4.352
1118.4,4.355
1119.2,4.358
1120.0,4.361
1120.8,4.364
1121.6,4.367
1122.4,4.37
1123.2,4.373
1124.0,4.376
1124.8,4.379
1125.6,4.382
1126.4,4.385
1127.2,4.388
1128.0,4.392
1128.8,4.395
1129.6,4.398
1130.4,4.401
1131.2,4.404
1132.0,4.407
1132.8,4.41
1133.6,4.413
1134.4,4.416
1135.2,4.419
1136.0,4.422
1136.8,4.425
1137.6,4.428
1138.4,4.431
1139.2,4.434
1140.0,4.437
1140.8,4.44
1141.6,4.443
1142.4,4.446
1143.2,4.449
1144.0,4.452
1144.8,4.455
1145.6,4.458
1146.4,4.461
1147.2,4.464
1148.0,4.467
1148.8,4.47
1149.6,4.473
1150.4,4.476
1151.2,4.479
1152.0,4.482
1152.8,4.485
1153.6,4.488
1154.4,4.491
1155.2,4.494
1156.0,4.497
1156.8,4.5
1157.6,4.504
1158.4,4.507
1159.2,4.51
1160.0,4.513
1160.8,4.516
1161.6,4.519
1162.4,4.522
1163.2,4.525
1164.0,4.528
1164.8,4.531
1165.6,4.534
1166.4,4.537
1167.2,4.54
1168.0,4.543
1168.8,4.546
1169.6,4.549
1170.4,4.552
1171.2,4.555
1172.0,4.558
1172.8,4.561
1173.6,4.564
1174.4,4.567
1175.2,4.57
1176.0,4.573
1176.8,4.576
1177.6,4.579
1178.4,4.582
1179.2,4.585
1180.0,4.588
1180.8,4.592
1181.6,4.595
1182.4,4.598
1183.2,4.601
1184.0,4.604
1184.8,4.607
1185.6,4.61
1186.4,4.613
1187.2,4.616
1188.0,4.619
1188.8,4.622
1189.6,4.625
1190.4,4.628
1191.2,4.631
1192.0,4.634
1192.8,4.637
1193.6,4.64
1194.4,4.643
1195.2,4.646
1196.0,4.65
1196.8,4.653
1197.6,4.656
1198.4,4.659
1199.2,4.662
1200.0,4.665
1200.8,4.668
1201.6,4.671
1202.4,4.674
1203.2,4.677
1204.0,4.68
1204.8,4.683
1205.6,4.687
1206.4,4.69
1207.2,4.693
1208.0,4.696
1208.8,4.699
1209.6,4.702
1210.4,4.705
1211.2,4.708
1212.0,4.711
1212.8,4.714
1213.6,4.718
1214.4,4.721
1215.2,4.724
1216.0,4.727
1216.8,4.73
1217.6,4.733
1218.4,4.736
1219.2,4.739
1220.0,4.742
1220.8,4.745
1221.6,4.749
1222.4,4.752
1223.2,4.755
1224.0,4.758
1224.8,4.761
1225.6,4.764
1226.4,4.767
1227.2,4.77
1228.0,4.773
1228.8,4.777
1229.6,4.78
1230.4,4.783
1231.2,4.786
1232.0,4.789
1232.8,4.792
1233.6,4.795
1234.4,4.798
1235.2,4.801
1236.0,4.804
1236.8,4.808
1237.6,4.811
1238.4,4.814
1239.2,4.817
1240.0,4.82
1240.8,4.823
1241.6,4.826
1242.4,4.829
1243.2,4.832
1244.0,4.835
1244.8,4.838
1245.6,4.841
1246.4,4.845
1247.2,4.848
1248.0,4.851
1248.8,4.854
1249.6,4.857
1250.4,4.86
1251.2,4.863
1252.0,4.866
1252.8,4.869
1253.6,4.872
1254.4,4.876
1255.2,4.879
1256.0,4.882
1256.8,4.885
1257.6,4.888
1258.4,4.891
1259.2,4.894
1260.0,4.897
1260.8,4.9
1261.6,4.903
1262.4,4.906
1263.2,4.909
1264.0,4.913
1264.8,4.916
1265.6,4.919
1266.4,4.922
1267.2,4.925
1268.0,4.928
1268.8,4.931
1269.6,4.934
1270.4,4.937
1271.2,4.941
1272.0,4.944
1272.8,4.947
1273.6,4.95
1274.4,4.953
1275.2,4.956
1276.0,4.959
1276.8,4.962
1277.6,4.965
1278.4,4.969
1279.2,4.972
1280.0,4.975
1280.8,4.978
1281.6,4.981
1282.4,4.984
1283.2,4.987
1284.0,4.991
1284.8,4.994
1285.6,4.997
1286.4,5.0
1287.2,5.003
1288.0,5.006
1288.8,5.009
1289.6,5.013
1290.4,5.016
1291.2,5.019
1292.0,5.022
1292.8,5.025
1293.6,5.028
1294.4,5.031
1295.2,5.035
1296.0,5.038
1296.8,5.041
1297.6,5.044
1298.4,5.047
1299.2,5.05
1300.0,5.053
1300.8,5.056
1301.6,5.06
1302.4,5.063
1303.2,5.066
1304.0,5.069
1304.8,5.072
1305.6,5.075
1306.4,5.079
1307.2,5.082
1308.0,5.085
1308.8,5.088
1309.6,5.091
1310.4,5.094
1311.2,5.097
1312.0,5.1
1312.8,5.104
1313.6,5.107
1314.4,5.11
1315.2,5.113
1316.0,5.116
1316.8,5.119
1317.6,5.122
1318.4,5.125
1319.2,5.129
1320.0,5.132
1320.8,5.135
1321.6,5.138
1322.4,5.141
1323.2,5.144
1324.0,5.147
1324.8,5.151
1325.6,5.154
